Date,Open,High,Low,Close,Volume,Trading Value
2020-07-02 22:30:00+09:00,113.44000244140625,115.01000213623047,113.44000244140625,114.97000122070312,271400.0,114.97000122070312
2020-07-06 22:30:00+09:00,115.98999786376953,116.66000366210938,114.18000030517578,115.26000213623047,330900.0,115.26000213623047
2020-07-07 22:30:00+09:00,114.63999938964844,116.0,114.18000030517578,115.1500015258789,346500.0,115.1500015258789
2020-07-08 22:30:00+09:00,114.79000091552734,115.75,112.58999633789062,112.93000030517578,205900.0,112.93000030517578
2020-07-09 22:30:00+09:00,113.16000366210938,114.13999938964844,111.41000366210938,113.76000213623047,307200.0,113.76000213623047
2020-07-10 22:30:00+09:00,114.16999816894531,115.16999816894531,112.4000015258789,114.94999694824219,244500.0,114.94999694824219
2020-07-13 22:30:00+09:00,114.95999908447266,116.2699966430664,113.2699966430664,113.43000030517578,289000.0,113.43000030517578
2020-07-14 22:30:00+09:00,113.76000213623047,116.5,113.69000244140625,116.30999755859375,193600.0,116.30999755859375
2020-07-15 22:30:00+09:00,117.44000244140625,118.29000091552734,116.54000091552734,117.9000015258789,326900.0,117.9000015258789
2020-07-16 22:30:00+09:00,118.04000091552734,118.48999786376953,116.80000305175781,117.23999786376953,252900.0,117.23999786376953
2020-07-17 22:30:00+09:00,118.0,119.70999908447266,117.33999633789062,119.4000015258789,249000.0,119.4000015258789
2020-07-20 22:30:00+09:00,119.4000015258789,119.75,118.2699966430664,119.29000091552734,183200.0,119.29000091552734
2020-07-21 22:30:00+09:00,119.58000183105469,119.87000274658203,117.66999816894531,118.18000030517578,394300.0,118.18000030517578
2020-07-22 22:30:00+09:00,118.25,118.9800033569336,117.41000366210938,118.5,414600.0,118.5
2020-07-23 22:30:00+09:00,118.38999938964844,119.2300033569336,118.08999633789062,118.44000244140625,286700.0,118.44000244140625
2020-07-24 22:30:00+09:00,119.0,119.79000091552734,118.37999725341797,118.8499984741211,244700.0,118.8499984741211
2020-07-27 22:30:00+09:00,118.83000183105469,120.44999694824219,118.5,119.8499984741211,281800.0,119.8499984741211
2020-07-28 22:30:00+09:00,119.80999755859375,119.80999755859375,117.77999877929688,118.05000305175781,208600.0,118.05000305175781
2020-07-29 22:30:00+09:00,118.72000122070312,119.41000366210938,117.33000183105469,118.80999755859375,251200.0,118.80999755859375
2020-07-30 22:30:00+09:00,117.75,118.91000366210938,116.69999694824219,117.91000366210938,359800.0,117.91000366210938
2020-07-31 22:30:00+09:00,115.0,117.9000015258789,111.22000122070312,115.19999694824219,668100.0,115.19999694824219
2020-08-03 22:30:00+09:00,116.8499984741211,119.68000030517578,114.8499984741211,118.66000366210938,292900.0,118.66000366210938
2020-08-04 22:30:00+09:00,118.94999694824219,120.18000030517578,118.22000122070312,118.62000274658203,233100.0,118.62000274658203
2020-08-05 22:30:00+09:00,119.55999755859375,120.66999816894531,118.22000122070312,118.36000061035156,164700.0,118.36000061035156
2020-08-06 22:30:00+09:00,118.81999969482422,120.11000061035156,116.68000030517578,117.66000366210938,246500.0,117.66000366210938
2020-08-07 22:30:00+09:00,117.06999969482422,119.37000274658203,116.77999877929688,119.25,202300.0,119.25
2020-08-10 22:30:00+09:00,119.58000183105469,119.58000183105469,116.9000015258789,117.0,204700.0,117.0
2020-08-11 22:30:00+09:00,118.0199966430664,119.3499984741211,116.52999877929688,116.73999786376953,214100.0,116.73999786376953
2020-08-12 22:30:00+09:00,116.91999816894531,118.56999969482422,116.75,118.08999633789062,171800.0,118.08999633789062
2020-08-13 22:30:00+09:00,117.23999786376953,119.47000122070312,117.23999786376953,118.5199966430664,213800.0,118.5199966430664
2020-08-14 22:30:00+09:00,117.87999725341797,119.63999938964844,117.69999694824219,118.48999786376953,134600.0,118.48999786376953
2020-08-17 22:30:00+09:00,119.13999938964844,119.91999816894531,118.01000213623047,118.25,160500.0,118.25
2020-08-18 22:30:00+09:00,117.91000366210938,118.63999938964844,116.7699966430664,117.87999725341797,171500.0,117.87999725341797
2020-08-19 22:30:00+09:00,118.69999694824219,119.37000274658203,117.31999969482422,117.69000244140625,145600.0,117.69000244140625
2020-08-20 22:30:00+09:00,117.05999755859375,118.12999725341797,116.5999984741211,117.55000305175781,159400.0,117.55000305175781
2020-08-21 22:30:00+09:00,117.12000274658203,118.3499984741211,116.4000015258789,117.80000305175781,199200.0,117.80000305175781
2020-08-24 22:30:00+09:00,118.19999694824219,119.76000213623047,118.19999694824219,119.11000061035156,224000.0,119.11000061035156
2020-08-25 22:30:00+09:00,119.54000091552734,119.54000091552734,117.93000030517578,118.12999725341797,114400.0,118.12999725341797
2020-08-26 22:30:00+09:00,117.98999786376953,119.0,117.55999755859375,118.5999984741211,120000.0,118.5999984741211
2020-08-27 22:30:00+09:00,118.62999725341797,120.62000274658203,118.5,120.05000305175781,209800.0,120.05000305175781
2020-08-28 22:30:00+09:00,119.69999694824219,119.69999694824219,118.0,118.12999725341797,295200.0,118.12999725341797
2020-08-31 22:30:00+09:00,118.58000183105469,119.16000366210938,117.77999877929688,118.38999938964844,182500.0,118.38999938964844
2020-09-01 22:30:00+09:00,117.94000244140625,119.63999938964844,117.94000244140625,119.5,133900.0,119.5
2020-09-02 22:30:00+09:00,119.75,122.44000244140625,118.97000122070312,122.26000213623047,153800.0,122.26000213623047
2020-09-03 22:30:00+09:00,122.27999877929688,122.27999877929688,118.5,119.16999816894531,227200.0,119.16999816894531
2020-09-04 22:30:00+09:00,120.04000091552734,120.30000305175781,116.48999786376953,118.72000122070312,224200.0,118.72000122070312
2020-09-08 22:30:00+09:00,118.12999725341797,118.12999725341797,116.04000091552734,116.05999755859375,164600.0,116.05999755859375
2020-09-09 22:30:00+09:00,116.63999938964844,118.62999725341797,116.63999938964844,117.88999938964844,154000.0,117.88999938964844
2020-09-10 22:30:00+09:00,118.16999816894531,118.91000366210938,116.70999908447266,117.19000244140625,253500.0,117.19000244140625
2020-09-11 22:30:00+09:00,117.87999725341797,118.70999908447266,117.12999725341797,118.36000061035156,124600.0,118.36000061035156
2020-09-14 22:30:00+09:00,119.37000274658203,120.05999755859375,118.47000122070312,119.08000183105469,129000.0,119.08000183105469
2020-09-15 22:30:00+09:00,119.44000244140625,119.80000305175781,118.12000274658203,118.33000183105469,125600.0,118.33000183105469
2020-09-16 22:30:00+09:00,119.58000183105469,119.58000183105469,117.56999969482422,117.7699966430664,232000.0,117.7699966430664
2020-09-17 22:30:00+09:00,116.5,117.23999786376953,115.08000183105469,115.95999908447266,354500.0,115.95999908447266
2020-09-18 22:30:00+09:00,116.58000183105469,116.75,114.2300033569336,115.04000091552734,555700.0,115.04000091552734
2020-09-21 22:30:00+09:00,113.5999984741211,114.04000091552734,111.81999969482422,113.44999694824219,251500.0,113.44999694824219
2020-09-22 22:30:00+09:00,113.97000122070312,114.66999816894531,113.55999755859375,114.33000183105469,292400.0,114.33000183105469
2020-09-23 22:30:00+09:00,114.19999694824219,114.52999877929688,111.70999908447266,112.13999938964844,172300.0,112.13999938964844
2020-09-24 22:30:00+09:00,111.9000015258789,113.16999816894531,111.16000366210938,112.26000213623047,274300.0,112.26000213623047
2020-09-25 22:30:00+09:00,111.45999908447266,112.58000183105469,111.45999908447266,112.0999984741211,254100.0,112.0999984741211
2020-09-28 22:30:00+09:00,113.16999816894531,114.22000122070312,112.04000091552734,112.36000061035156,230000.0,112.36000061035156
2020-09-29 22:30:00+09:00,112.05999755859375,113.3499984741211,111.75,112.62000274658203,230000.0,112.62000274658203
2020-09-30 22:30:00+09:00,113.2699966430664,114.05999755859375,112.5,113.19999694824219,200500.0,113.19999694824219
2020-10-01 22:30:00+09:00,113.44999694824219,114.97000122070312,113.13999938964844,113.69999694824219,166000.0,113.69999694824219
2020-10-02 22:30:00+09:00,112.30999755859375,114.18000030517578,112.30999755859375,112.8499984741211,166800.0,112.8499984741211
2020-10-05 22:30:00+09:00,113.36000061035156,114.93000030517578,113.20999908447266,114.55000305175781,151300.0,114.55000305175781
2020-10-06 22:30:00+09:00,115.01000213623047,115.9000015258789,113.91999816894531,114.55999755859375,224000.0,114.55999755859375
2020-10-07 22:30:00+09:00,115.08999633789062,116.16999816894531,114.5,114.9800033569336,173200.0,114.9800033569336
2020-10-08 22:30:00+09:00,115.80000305175781,116.79000091552734,115.5199966430664,116.5199966430664,138000.0,116.5199966430664
2020-10-09 22:30:00+09:00,118.12000274658203,118.38999938964844,116.19000244140625,116.80999755859375,148700.0,116.80999755859375
2020-10-12 22:30:00+09:00,117.05000305175781,118.83000183105469,116.69999694824219,118.04000091552734,138100.0,118.04000091552734
2020-10-13 22:30:00+09:00,117.7300033569336,118.91000366210938,117.25,117.55999755859375,159000.0,117.55999755859375
2020-10-14 22:30:00+09:00,117.5,118.02999877929688,116.04000091552734,116.44000244140625,98900.0,116.44000244140625
2020-10-15 22:30:00+09:00,114.72000122070312,116.58999633789062,114.22000122070312,116.33999633789062,116900.0,116.33999633789062
2020-10-16 22:30:00+09:00,116.70999908447266,117.2300033569336,116.19000244140625,116.3499984741211,97700.0,116.3499984741211
2020-10-19 22:30:00+09:00,116.63999938964844,116.63999938964844,114.58000183105469,115.1500015258789,113700.0,115.1500015258789
2020-10-20 22:30:00+09:00,116.05000305175781,117.55999755859375,115.22000122070312,116.95999908447266,192600.0,116.95999908447266
2020-10-21 22:30:00+09:00,117.2699966430664,118.76000213623047,117.2699966430664,117.73999786376953,133700.0,117.73999786376953
2020-10-22 22:30:00+09:00,117.88999938964844,118.4800033569336,116.75,118.30999755859375,164100.0,118.30999755859375
2020-10-23 22:30:00+09:00,118.75,118.97000122070312,117.4800033569336,118.3499984741211,105600.0,118.3499984741211
2020-10-26 22:30:00+09:00,117.3499984741211,117.48999786376953,115.93000030517578,117.45999908447266,114100.0,117.45999908447266
2020-10-27 22:30:00+09:00,117.16999816894531,117.19000244140625,115.61000061035156,115.6500015258789,125000.0,115.6500015258789
2020-10-28 22:30:00+09:00,114.11000061035156,114.61000061035156,112.25,112.33999633789062,170500.0,112.33999633789062
2020-10-29 22:30:00+09:00,112.30000305175781,113.0999984741211,110.33999633789062,112.94000244140625,279100.0,112.94000244140625
2020-10-30 22:30:00+09:00,116.25,116.76000213623047,113.54000091552734,114.08999633789062,377900.0,114.08999633789062
2020-11-02 23:30:00+09:00,115.16999816894531,118.29000091552734,114.66999816894531,118.19000244140625,215600.0,118.19000244140625
2020-11-03 23:30:00+09:00,118.5,121.45999908447266,118.33000183105469,119.55999755859375,242400.0,119.55999755859375
2020-11-04 23:30:00+09:00,120.0,120.0199966430664,118.0999984741211,119.05000305175781,150600.0,119.05000305175781
2020-11-05 23:30:00+09:00,120.61000061035156,123.0999984741211,120.43000030517578,122.91000366210938,185500.0,122.91000366210938
2020-11-06 23:30:00+09:00,123.58999633789062,124.61000061035156,122.47000122070312,123.5999984741211,220300.0,123.5999984741211
2020-11-09 23:30:00+09:00,127.62000274658203,128.86000061035156,122.11000061035156,123.16999816894531,336500.0,123.16999816894531
2020-11-10 23:30:00+09:00,123.38999938964844,128.8000030517578,122.94999694824219,127.61000061035156,326100.0,127.61000061035156
2020-11-11 23:30:00+09:00,127.75,127.75,124.37000274658203,125.2699966430664,194700.0,125.2699966430664
2020-11-12 23:30:00+09:00,124.23999786376953,125.20999908447266,122.58999633789062,124.2699966430664,126300.0,124.2699966430664
2020-11-13 23:30:00+09:00,124.8499984741211,126.0,124.0999984741211,125.06999969482422,126300.0,125.06999969482422
2020-11-16 23:30:00+09:00,126.27999877929688,127.0,125.56999969482422,126.86000061035156,207400.0,126.86000061035156
2020-11-17 23:30:00+09:00,126.26000213623047,128.10000610351562,125.69999694824219,127.36000061035156,191200.0,127.36000061035156
2020-11-18 23:30:00+09:00,127.43000030517578,127.86000061035156,125.97000122070312,126.37000274658203,173100.0,126.37000274658203
2020-11-19 23:30:00+09:00,126.69999694824219,127.62000274658203,126.0,127.2300033569336,213900.0,127.2300033569336
2020-11-20 23:30:00+09:00,127.51000213623047,128.36000061035156,127.19000244140625,127.80999755859375,237300.0,127.80999755859375
2020-11-23 23:30:00+09:00,128.05999755859375,129.1199951171875,126.4000015258789,126.86000061035156,182300.0,126.86000061035156
2020-11-24 23:30:00+09:00,128.16000366210938,128.47000122070312,126.87999725341797,127.87999725341797,237200.0,127.87999725341797
2020-11-25 23:30:00+09:00,128.47999572753906,128.47999572753906,125.7699966430664,126.29000091552734,136100.0,126.29000091552734
2020-11-27 23:30:00+09:00,126.55000305175781,127.30000305175781,126.08000183105469,127.23999786376953,67800.0,127.23999786376953
2020-11-30 23:30:00+09:00,126.79000091552734,126.93000030517578,125.69000244140625,126.31999969482422,204600.0,126.31999969482422
2020-12-01 23:30:00+09:00,127.1500015258789,128.5800018310547,126.41999816894531,127.81999969482422,165800.0,127.81999969482422
2020-12-02 23:30:00+09:00,127.36000061035156,128.0500030517578,125.72000122070312,126.26000213623047,133800.0,126.26000213623047
2020-12-03 23:30:00+09:00,126.06999969482422,127.11000061035156,125.1500015258789,125.87000274658203,138700.0,125.87000274658203
2020-12-04 23:30:00+09:00,125.4800033569336,127.80000305175781,125.4800033569336,127.68000030517578,144600.0,127.68000030517578
2020-12-07 23:30:00+09:00,127.98999786376953,128.99000549316406,127.63999938964844,128.6300048828125,115000.0,128.6300048828125
2020-12-08 23:30:00+09:00,128.2899932861328,130.89999389648438,127.94000244140625,129.19000244140625,162100.0,129.19000244140625
2020-12-09 23:30:00+09:00,129.1300048828125,130.17999267578125,128.66000366210938,129.52999877929688,144800.0,129.52999877929688
2020-12-10 23:30:00+09:00,129.47000122070312,131.08999633789062,129.02000427246094,130.47000122070312,247100.0,130.47000122070312
2020-12-11 23:30:00+09:00,129.58999633789062,131.10000610351562,129.58999633789062,130.4499969482422,165800.0,130.4499969482422
2020-12-14 23:30:00+09:00,131.0500030517578,131.99000549316406,128.1999969482422,128.41000366210938,205800.0,128.41000366210938
2020-12-15 23:30:00+09:00,128.55999755859375,130.64999389648438,128.30999755859375,130.25999450683594,158200.0,130.25999450683594
2020-12-16 23:30:00+09:00,130.99000549316406,131.74000549316406,130.1999969482422,131.10000610351562,265400.0,131.10000610351562
2020-12-17 23:30:00+09:00,131.2899932861328,133.69000244140625,131.0,133.13999938964844,297700.0,133.13999938964844
2020-12-18 23:30:00+09:00,134.0,134.6699981689453,133.63999938964844,134.10000610351562,656300.0,134.10000610351562
2020-12-21 23:30:00+09:00,132.77999877929688,135.0,131.5,134.88999938964844,211700.0,134.88999938964844
2020-12-22 23:30:00+09:00,134.64999389648438,136.22000122070312,134.00999450683594,134.5,257300.0,134.5
2020-12-23 23:30:00+09:00,134.52000427246094,135.75,134.4499969482422,134.52999877929688,191600.0,134.52999877929688
2020-12-24 23:30:00+09:00,135.0,136.3699951171875,134.64999389648438,135.6999969482422,84200.0,135.6999969482422
2020-12-28 23:30:00+09:00,136.19000244140625,137.13999938964844,135.05999755859375,135.67999267578125,100400.0,135.67999267578125
2020-12-29 23:30:00+09:00,136.27000427246094,136.75,134.83999633789062,135.30999755859375,94400.0,135.30999755859375
2020-12-30 23:30:00+09:00,135.91000366210938,137.36000061035156,135.4600067138672,136.38999938964844,99000.0,136.38999938964844
2020-12-31 23:30:00+09:00,136.77000427246094,137.32000732421875,135.61000061035156,136.88999938964844,169800.0,136.88999938964844
2021-01-04 23:30:00+09:00,135.9199981689453,137.97000122070312,133.67999267578125,134.0,315700.0,134.0
2021-01-05 23:30:00+09:00,134.1300048828125,135.2899932861328,133.5399932861328,133.6999969482422,260500.0,133.6999969482422
2021-01-06 23:30:00+09:00,134.22000122070312,137.97000122070312,134.22000122070312,137.72000122070312,289300.0,137.72000122070312
2021-01-07 23:30:00+09:00,137.52000427246094,140.0,136.50999450683594,139.6999969482422,192400.0,139.6999969482422
2021-01-08 23:30:00+09:00,139.57000732421875,140.6199951171875,137.75999450683594,139.07000732421875,140600.0,139.07000732421875
2021-01-11 23:30:00+09:00,139.5,139.8699951171875,138.3800048828125,138.7899932861328,115300.0,138.7899932861328
2021-01-12 23:30:00+09:00,138.80999755859375,139.22999572753906,137.08999633789062,138.14999389648438,199200.0,138.14999389648438
2021-01-13 23:30:00+09:00,137.9499969482422,139.5800018310547,136.13999938964844,138.5800018310547,245000.0,138.5800018310547
2021-01-14 23:30:00+09:00,138.5,140.7100067138672,137.52000427246094,139.4499969482422,181200.0,139.4499969482422
2021-01-15 23:30:00+09:00,139.0399932861328,141.3300018310547,138.3699951171875,138.8300018310547,149300.0,138.8300018310547
2021-01-19 23:30:00+09:00,139.5800018310547,140.6199951171875,137.25,137.25999450683594,222300.0,137.25999450683594
2021-01-20 23:30:00+09:00,137.72999572753906,140.75,137.49000549316406,140.6199951171875,254100.0,140.6199951171875
2021-01-21 23:30:00+09:00,140.27000427246094,141.1300048828125,138.00999450683594,138.11000061035156,208300.0,138.11000061035156
2021-01-22 23:30:00+09:00,137.86000061035156,138.3800048828125,137.11000061035156,138.19000244140625,227800.0,138.19000244140625
2021-01-25 23:30:00+09:00,138.16000366210938,139.9199981689453,137.85000610351562,139.57000732421875,187100.0,139.57000732421875
2021-01-26 23:30:00+09:00,139.42999267578125,140.0,137.0800018310547,138.85000610351562,125900.0,138.85000610351562
2021-01-27 23:30:00+09:00,137.52999877929688,137.52999877929688,133.14999389648438,133.25,186900.0,133.25
2021-01-28 23:30:00+09:00,134.0800018310547,135.8000030517578,133.61000061035156,135.25,165800.0,135.25
2021-01-29 23:30:00+09:00,134.42999267578125,135.36000061035156,131.82000732421875,132.97000122070312,377800.0,132.97000122070312
2021-02-01 23:30:00+09:00,134.1300048828125,134.38999938964844,131.80999755859375,134.08999633789062,184700.0,134.08999633789062
2021-02-02 23:30:00+09:00,135.0500030517578,138.1199951171875,134.74000549316406,136.94000244140625,193000.0,136.94000244140625
2021-02-03 23:30:00+09:00,136.16000366210938,137.3000030517578,135.38999938964844,136.55999755859375,134700.0,136.55999755859375
2021-02-04 23:30:00+09:00,136.1199951171875,138.39999389648438,135.0,138.0,251100.0,138.0
2021-02-05 23:30:00+09:00,139.4600067138672,140.72999572753906,138.72000122070312,140.66000366210938,177500.0,140.66000366210938
2021-02-08 23:30:00+09:00,141.25,142.0,140.52999877929688,141.97999572753906,171200.0,141.97999572753906
2021-02-09 23:30:00+09:00,141.9600067138672,142.88999938964844,141.22000122070312,142.1699981689453,183000.0,142.1699981689453
2021-02-10 23:30:00+09:00,143.0,144.10000610351562,142.50999450683594,143.25,151100.0,143.25
2021-02-11 23:30:00+09:00,143.5,144.32000732421875,142.05999755859375,142.97000122070312,195800.0,142.97000122070312
2021-02-12 23:30:00+09:00,142.3800048828125,144.75999450683594,142.3800048828125,144.6300048828125,105300.0,144.6300048828125
2021-02-16 23:30:00+09:00,144.61000061035156,144.72000122070312,142.89999389648438,143.60000610351562,175300.0,143.60000610351562
2021-02-17 23:30:00+09:00,143.75,144.17999267578125,142.4499969482422,143.2100067138672,200700.0,143.2100067138672
2021-02-18 23:30:00+09:00,142.6199951171875,143.17999267578125,140.99000549316406,140.99000549316406,208700.0,140.99000549316406
2021-02-19 23:30:00+09:00,138.57000732421875,138.57000732421875,131.61000061035156,132.24000549316406,492900.0,132.24000549316406
2021-02-22 23:30:00+09:00,131.25,131.3699951171875,127.5,129.10000610351562,347100.0,129.10000610351562
2021-02-23 23:30:00+09:00,127.81999969482422,128.72000122070312,126.77999877929688,128.27999877929688,490700.0,128.27999877929688
2021-02-24 23:30:00+09:00,128.25999450683594,129.0399932861328,127.80000305175781,128.75999450683594,213000.0,128.75999450683594
2021-02-25 23:30:00+09:00,128.77000427246094,130.91000366210938,128.77000427246094,130.3000030517578,378600.0,130.3000030517578
2021-02-26 23:30:00+09:00,131.05999755859375,131.57000732421875,129.55999755859375,130.07000732421875,386500.0,130.07000732421875
2021-03-01 23:30:00+09:00,130.77999877929688,132.0,129.8800048828125,130.60000610351562,283000.0,130.60000610351562
2021-03-02 23:30:00+09:00,130.44000244140625,130.66000366210938,129.47000122070312,130.35000610351562,367700.0,130.35000610351562
2021-03-03 23:30:00+09:00,130.3699951171875,132.17999267578125,129.5,131.0500030517578,220400.0,131.0500030517578
2021-03-04 23:30:00+09:00,130.88999938964844,131.89999389648438,130.1300048828125,130.39999389648438,493600.0,130.39999389648438
2021-03-05 23:30:00+09:00,131.13999938964844,134.13999938964844,130.41000366210938,134.08999633789062,204700.0,134.08999633789062
2021-03-08 23:30:00+09:00,134.8300018310547,138.47999572753906,134.10000610351562,137.7100067138672,230600.0,137.7100067138672
2021-03-09 23:30:00+09:00,138.67999267578125,140.6699981689453,137.67999267578125,137.69000244140625,251500.0,137.69000244140625
2021-03-10 23:30:00+09:00,138.2100067138672,140.1199951171875,137.94000244140625,139.3800048828125,150700.0,139.3800048828125
2021-03-11 23:30:00+09:00,139.19000244140625,140.4199981689453,138.74000549316406,139.3800048828125,169100.0,139.3800048828125
2021-03-12 23:30:00+09:00,140.0,141.24000549316406,139.25999450683594,140.77000427246094,219000.0,140.77000427246094
2021-03-15 22:30:00+09:00,141.77999877929688,143.02999877929688,141.00999450683594,142.1300048828125,356200.0,142.1300048828125
2021-03-16 22:30:00+09:00,141.7100067138672,142.10000610351562,139.3300018310547,140.5,280700.0,140.5
2021-03-17 22:30:00+09:00,139.91000366210938,141.74000549316406,139.3800048828125,141.27999877929688,180900.0,141.27999877929688
2021-03-18 22:30:00+09:00,141.33999633789062,142.47000122070312,140.94000244140625,141.50999450683594,174100.0,141.50999450683594
2021-03-19 22:30:00+09:00,142.05999755859375,142.3300018310547,139.0399932861328,139.30999755859375,615000.0,139.30999755859375
2021-03-22 22:30:00+09:00,138.97000122070312,141.86000061035156,138.25999450683594,141.58999633789062,247700.0,141.58999633789062
2021-03-23 22:30:00+09:00,140.52999877929688,142.55999755859375,140.16000366210938,140.77000427246094,330100.0,140.77000427246094
2021-03-24 22:30:00+09:00,141.16000366210938,144.3300018310547,141.16000366210938,141.83999633789062,300800.0,141.83999633789062
2021-03-25 22:30:00+09:00,141.39999389648438,143.22999572753906,140.4499969482422,142.47000122070312,265600.0,142.47000122070312
2021-03-26 22:30:00+09:00,143.0,144.82000732421875,142.19000244140625,144.82000732421875,286800.0,144.82000732421875
2021-03-29 22:30:00+09:00,144.24000549316406,145.89999389648438,143.38999938964844,144.77000427246094,272200.0,144.77000427246094
2021-03-30 22:30:00+09:00,144.3300018310547,144.41000366210938,142.60000610351562,143.0800018310547,247900.0,143.0800018310547
2021-03-31 22:30:00+09:00,143.02999877929688,143.47000122070312,141.22999572753906,141.6699981689453,408600.0,141.6699981689453
2021-04-01 22:30:00+09:00,141.99000549316406,143.97999572753906,141.3800048828125,143.8699951171875,228200.0,143.8699951171875
2021-04-05 22:30:00+09:00,144.9499969482422,144.9499969482422,143.33999633789062,144.69000244140625,196100.0,144.69000244140625
2021-04-06 22:30:00+09:00,144.0399932861328,145.99000549316406,143.32000732421875,145.97000122070312,206100.0,145.97000122070312
2021-04-07 22:30:00+09:00,145.27999877929688,145.5,143.3800048828125,143.58999633789062,188000.0,143.58999633789062
2021-04-08 22:30:00+09:00,143.8000030517578,143.9600067138672,142.19000244140625,143.67999267578125,158700.0,143.67999267578125
2021-04-09 22:30:00+09:00,144.4199981689453,145.3000030517578,143.27999877929688,145.1999969482422,151400.0,145.1999969482422
2021-04-12 22:30:00+09:00,144.67999267578125,146.3800048828125,144.67999267578125,146.2100067138672,100800.0,146.2100067138672
2021-04-13 22:30:00+09:00,146.60000610351562,147.00999450683594,145.44000244140625,146.3300018310547,160800.0,146.3300018310547
2021-04-14 22:30:00+09:00,144.5,146.14999389648438,144.5,145.80999755859375,185100.0,145.80999755859375
2021-04-15 22:30:00+09:00,146.9199981689453,147.89999389648438,146.02999877929688,147.1999969482422,184800.0,147.1999969482422
2021-04-16 22:30:00+09:00,149.13999938964844,149.58999633789062,147.57000732421875,148.0800018310547,322600.0,148.0800018310547
2021-04-19 22:30:00+09:00,148.22999572753906,149.7899932861328,147.75,149.7100067138672,203900.0,149.7100067138672
2021-04-20 22:30:00+09:00,147.0,150.75,146.6699981689453,150.4199981689453,190300.0,150.4199981689453
2021-04-21 22:30:00+09:00,150.14999389648438,152.36000061035156,150.14999389648438,151.94000244140625,191200.0,151.94000244140625
2021-04-22 22:30:00+09:00,152.02000427246094,152.02000427246094,149.94000244140625,150.07000732421875,278400.0,150.07000732421875
2021-04-23 22:30:00+09:00,150.2899932861328,151.74000549316406,149.8300018310547,151.4499969482422,188100.0,151.4499969482422
2021-04-26 22:30:00+09:00,151.75,152.17999267578125,150.89999389648438,150.9199981689453,193600.0,150.9199981689453
2021-04-27 22:30:00+09:00,150.10000610351562,151.6699981689453,149.47999572753906,151.63999938964844,214900.0,151.63999938964844
2021-04-28 22:30:00+09:00,151.42999267578125,153.07000732421875,151.0500030517578,151.1199951171875,192000.0,151.1199951171875
2021-04-29 22:30:00+09:00,151.44000244140625,152.14999389648438,150.39999389648438,150.9199981689453,226400.0,150.9199981689453
2021-04-30 22:30:00+09:00,150.0,151.94000244140625,147.89999389648438,150.80999755859375,365700.0,150.80999755859375
2021-05-03 22:30:00+09:00,152.16000366210938,153.1999969482422,151.74000549316406,152.4600067138672,212900.0,152.4600067138672
2021-05-04 22:30:00+09:00,152.88999938964844,156.13999938964844,152.88999938964844,155.02000427246094,206800.0,155.02000427246094
2021-05-05 22:30:00+09:00,155.3000030517578,155.3000030517578,153.38999938964844,154.17999267578125,186400.0,154.17999267578125
2021-05-06 22:30:00+09:00,154.1300048828125,156.6300048828125,153.63999938964844,156.52000427246094,240600.0,156.52000427246094
2021-05-07 22:30:00+09:00,155.5500030517578,157.92999267578125,155.5500030517578,157.55999755859375,187100.0,157.55999755859375
2021-05-10 22:30:00+09:00,157.74000549316406,158.97000122070312,155.38999938964844,155.47999572753906,226300.0,155.47999572753906
2021-05-11 22:30:00+09:00,154.5500030517578,155.66000366210938,153.72000122070312,153.99000549316406,299700.0,153.99000549316406
2021-05-12 22:30:00+09:00,153.61000061035156,154.5500030517578,151.61000061035156,151.61000061035156,164100.0,151.61000061035156
2021-05-13 22:30:00+09:00,151.39999389648438,155.2899932861328,151.33999633789062,154.6199951171875,308900.0,154.6199951171875
2021-05-14 22:30:00+09:00,154.97000122070312,155.2899932861328,153.17999267578125,153.5399932861328,174000.0,153.5399932861328
2021-05-17 22:30:00+09:00,153.11000061035156,154.08999633789062,152.22999572753906,153.11000061035156,136800.0,153.11000061035156
2021-05-18 22:30:00+09:00,153.41000366210938,154.0,150.86000061035156,150.9199981689453,172500.0,150.9199981689453
2021-05-19 22:30:00+09:00,150.0,151.0399932861328,148.60000610351562,149.5399932861328,161400.0,149.5399932861328
2021-05-20 22:30:00+09:00,149.27000427246094,150.61000061035156,149.0399932861328,149.74000549316406,123200.0,149.74000549316406
2021-05-21 22:30:00+09:00,149.92999267578125,150.5800018310547,148.8800048828125,149.6300048828125,134900.0,149.6300048828125
2021-05-24 22:30:00+09:00,150.47000122070312,150.72999572753906,148.9600067138672,149.25999450683594,143000.0,149.25999450683594
2021-05-25 22:30:00+09:00,149.63999938964844,150.1199951171875,147.47000122070312,147.72999572753906,199200.0,147.72999572753906
2021-05-26 22:30:00+09:00,148.5,149.38999938964844,147.1699981689453,147.86000061035156,113600.0,147.86000061035156
2021-05-27 22:30:00+09:00,148.6199951171875,149.14999389648438,146.47999572753906,146.77000427246094,172600.0,146.77000427246094
2021-05-28 22:30:00+09:00,147.2899932861328,147.5,146.4199981689453,147.30999755859375,146900.0,147.30999755859375
2021-06-01 22:30:00+09:00,147.97999572753906,148.80999755859375,146.61000061035156,146.8800048828125,173000.0,146.8800048828125
2021-06-02 22:30:00+09:00,146.85000610351562,147.88999938964844,145.1199951171875,145.66000366210938,282800.0,145.66000366210938
2021-06-03 22:30:00+09:00,145.47999572753906,146.1199951171875,144.74000549316406,145.39999389648438,224500.0,145.39999389648438
2021-06-04 22:30:00+09:00,146.0399932861328,146.25999450683594,144.77999877929688,145.55999755859375,151900.0,145.55999755859375
2021-06-07 22:30:00+09:00,145.52999877929688,146.08999633789062,142.02999877929688,142.52000427246094,184800.0,142.52000427246094
2021-06-08 22:30:00+09:00,142.52999877929688,142.91000366210938,141.1199951171875,142.77999877929688,182900.0,142.77999877929688
2021-06-09 22:30:00+09:00,142.57000732421875,143.2100067138672,141.63999938964844,142.1699981689453,174100.0,142.1699981689453
2021-06-10 22:30:00+09:00,142.38999938964844,145.0500030517578,142.22999572753906,144.99000549316406,216100.0,144.99000549316406
2021-06-11 22:30:00+09:00,145.25999450683594,146.25,144.24000549316406,145.8300018310547,152900.0,145.8300018310547
2021-06-14 22:30:00+09:00,146.0,146.0,143.07000732421875,143.49000549316406,223600.0,143.49000549316406
2021-06-15 22:30:00+09:00,143.5399932861328,144.91000366210938,143.3699951171875,144.3300018310547,214200.0,144.3300018310547
2021-06-16 22:30:00+09:00,144.4499969482422,145.19000244140625,142.44000244140625,142.6199951171875,168400.0,142.6199951171875
2021-06-17 22:30:00+09:00,142.75999450683594,143.60000610351562,139.97000122070312,141.50999450683594,157900.0,141.50999450683594
2021-06-18 22:30:00+09:00,140.75,141.89999389648438,139.91000366210938,140.10000610351562,280400.0,140.10000610351562
2021-06-21 22:30:00+09:00,140.97999572753906,142.1999969482422,140.1699981689453,141.5800018310547,229800.0,141.5800018310547
2021-06-22 22:30:00+09:00,141.88999938964844,142.66000366210938,141.16000366210938,141.6300048828125,207400.0,141.6300048828125
2021-06-23 22:30:00+09:00,141.38999938964844,142.16000366210938,140.10000610351562,140.1699981689453,227600.0,140.1699981689453
2021-06-24 22:30:00+09:00,140.92999267578125,140.92999267578125,139.7899932861328,140.17999267578125,142300.0,140.17999267578125
2021-06-25 22:30:00+09:00,140.17999267578125,141.49000549316406,140.11000061035156,140.9199981689453,635000.0,140.9199981689453
2021-06-28 22:30:00+09:00,141.0800018310547,141.4199981689453,139.72999572753906,140.7100067138672,218600.0,140.7100067138672
2021-06-29 22:30:00+09:00,140.80999755859375,141.97000122070312,140.05999755859375,140.27999877929688,151900.0,140.27999877929688
2021-06-30 22:30:00+09:00,140.32000732421875,141.9199981689453,140.2899932861328,140.83999633789062,186500.0,140.83999633789062
2021-07-01 22:30:00+09:00,141.11000061035156,141.6999969482422,140.89999389648438,141.1199951171875,225500.0,141.1199951171875
2021-07-02 22:30:00+09:00,141.47999572753906,141.94000244140625,140.05999755859375,140.41000366210938,121900.0,140.41000366210938
2021-07-06 22:30:00+09:00,140.39999389648438,140.8699951171875,138.63999938964844,140.0500030517578,273400.0,140.0500030517578
2021-07-07 22:30:00+09:00,139.82000732421875,141.4600067138672,139.82000732421875,141.02000427246094,219900.0,141.02000427246094
2021-07-08 22:30:00+09:00,139.94000244140625,140.60000610351562,139.00999450683594,139.27000427246094,154200.0,139.27000427246094
2021-07-09 22:30:00+09:00,139.85000610351562,141.27999877929688,139.75999450683594,141.17999267578125,229800.0,141.17999267578125
2021-07-12 22:30:00+09:00,140.82000732421875,141.00999450683594,140.0500030517578,140.4199981689453,174300.0,140.4199981689453
2021-07-13 22:30:00+09:00,140.2100067138672,141.2100067138672,138.36000061035156,138.5,223600.0,138.5
2021-07-14 22:30:00+09:00,138.6699981689453,139.14999389648438,138.00999450683594,138.44000244140625,179900.0,138.44000244140625
2021-07-15 22:30:00+09:00,137.75,139.00999450683594,137.32000732421875,138.55999755859375,155500.0,138.55999755859375
2021-07-16 22:30:00+09:00,139.00999450683594,140.35000610351562,138.39999389648438,139.0399932861328,177700.0,139.0399932861328
2021-07-19 22:30:00+09:00,138.0399932861328,138.92999267578125,136.3800048828125,137.1300048828125,293000.0,137.1300048828125
2021-07-20 22:30:00+09:00,137.3000030517578,139.64999389648438,137.0,137.02000427246094,294000.0,137.02000427246094
2021-07-21 22:30:00+09:00,137.3000030517578,138.00999450683594,135.92999267578125,136.05999755859375,158000.0,136.05999755859375
2021-07-22 22:30:00+09:00,136.3300018310547,136.74000549316406,134.66000366210938,134.6699981689453,203600.0,134.6699981689453
2021-07-23 22:30:00+09:00,134.97999572753906,136.27999877929688,134.2899932861328,136.24000549316406,175200.0,136.24000549316406
2021-07-26 22:30:00+09:00,136.75999450683594,137.1300048828125,135.89999389648438,136.72000122070312,191000.0,136.72000122070312
2021-07-27 22:30:00+09:00,136.11000061035156,138.25,135.38999938964844,136.75999450683594,150500.0,136.75999450683594
2021-07-28 22:30:00+09:00,136.52000427246094,137.82000732421875,136.22999572753906,137.64999389648438,165100.0,137.64999389648438
2021-07-29 22:30:00+09:00,138.72000122070312,140.00999450683594,138.72000122070312,139.0500030517578,316000.0,139.0500030517578
2021-07-30 22:30:00+09:00,136.0,139.50999450683594,128.17999267578125,128.9199981689453,842400.0,128.9199981689453
2021-08-02 22:30:00+09:00,128.44000244140625,130.5800018310547,127.69000244140625,129.91000366210938,453600.0,129.91000366210938
2021-08-03 22:30:00+09:00,129.5500030517578,129.74000549316406,127.66999816894531,128.6300048828125,418300.0,128.6300048828125
2021-08-04 22:30:00+09:00,128.75999450683594,129.39999389648438,126.31999969482422,126.7699966430664,294500.0,126.7699966430664
2021-08-05 22:30:00+09:00,127.44000244140625,128.1999969482422,126.63999938964844,127.5,158000.0,127.5
2021-08-06 22:30:00+09:00,128.0800018310547,129.4600067138672,127.91999816894531,128.42999267578125,184600.0,128.42999267578125
2021-08-09 22:30:00+09:00,128.6999969482422,130.74000549316406,128.6199951171875,130.0800018310547,297200.0,130.0800018310547
2021-08-10 22:30:00+09:00,129.30999755859375,131.2100067138672,128.9600067138672,129.1999969482422,200400.0,129.1999969482422
2021-08-11 22:30:00+09:00,130.19000244140625,132.32000732421875,129.1699981689453,131.6300048828125,305900.0,131.6300048828125
2021-08-12 22:30:00+09:00,132.5399932861328,133.60000610351562,131.91000366210938,132.67999267578125,247800.0,132.67999267578125
2021-08-13 22:30:00+09:00,132.88999938964844,133.88999938964844,132.50999450683594,133.0500030517578,174300.0,133.0500030517578
2021-08-16 22:30:00+09:00,132.58999633789062,133.1699981689453,131.66000366210938,132.8800048828125,106300.0,132.8800048828125
2021-08-17 22:30:00+09:00,132.3300018310547,133.13999938964844,131.60000610351562,133.00999450683594,213100.0,133.00999450683594
2021-08-18 22:30:00+09:00,132.27999877929688,133.10000610351562,132.0399932861328,132.0500030517578,110800.0,132.0500030517578
2021-08-20 05:00:01+09:00,131.44000244140625,132.95350646972656,131.39999389648438,132.41000366210938,91792.0,132.41000366210938
